Freq (hertz)	Ra (norm)	Xa (norm)	Za (norm)	SPL (dB)	Ze (ohms)	Xd (mm) 	WPhase (deg)	UPhase (deg)	CPhase (deg)	Delay (msec)	Efficiency (%)	Ein (volts)	Pin (watts)	Iin (amps)	ZePhase (deg)

10.000000	0.001815	0.051104	0.051137	81.064366	5.860999	1.235099	152.363501	152.363501	152.363501	7.300064	0.015717	2.830000	1.232220	0.482853	25.610688
10.144045	0.001867	0.051839	0.051873	81.297655	5.881175	1.232956	151.985337	151.985337	151.985337	7.284955	0.016690	2.830000	1.224427	0.481196	25.955578
10.290166	0.001922	0.052584	0.052619	81.530543	5.901998	1.230761	151.602530	151.602530	151.602530	7.269494	0.017725	2.830000	1.216469	0.479499	26.304438
10.438391	0.001977	0.053340	0.053377	81.763022	5.923492	1.228511	151.215043	151.215043	151.215043	7.253674	0.018826	2.830000	1.208342	0.477759	26.657285
10.588751	0.002035	0.054107	0.054145	81.995082	5.945682	1.226208	150.822841	150.822841	150.822841	7.237489	0.019996	2.830000	1.200045	0.475976	27.014134
10.741277	0.002094	0.054884	0.054924	82.226712	5.968591	1.223848	150.425889	150.425889	150.425889	7.220934	0.021241	2.830000	1.191576	0.474149	27.375000
10.896000	0.002154	0.055673	0.055715	82.457903	5.992245	1.221431	150.024151	150.024151	150.024151	7.204001	0.022566	2.830000	1.182935	0.472277	27.739895
11.052951	0.002217	0.056473	0.056517	82.688645	6.016672	1.218957	149.617594	149.617594	149.617594	7.186687	0.023977	2.830000	1.174118	0.470360	28.108831
11.212164	0.002281	0.057285	0.057330	82.918927	6.041899	1.216423	149.206184	149.206184	149.206184	7.168984	0.025477	2.830000	1.165125	0.468396	28.481817
11.373670	0.002347	0.058108	0.058155	83.148738	6.067957	1.213829	148.789889	148.789889	148.789889	7.150887	0.027075	2.830000	1.155955	0.466384	28.858861
11.537502	0.002415	0.058943	0.058992	83.378069	6.094874	1.211175	148.368677	148.368677	148.368677	7.132389	0.028776	2.830000	1.146606	0.464325	29.239969
11.703695	0.002485	0.059790	0.059841	83.606907	6.122685	1.208458	147.942516	147.942516	147.942516	7.113487	0.030587	2.830000	1.137077	0.462216	29.625146
11.872281	0.002557	0.060648	0.060702	83.835242	6.151421	1.205677	147.511376	147.511376	147.511376	7.094173	0.032516	2.830000	1.127366	0.460056	30.014392
12.043295	0.002631	0.061520	0.061576	84.063063	6.181117	1.202832	147.075227	147.075227	147.075227	7.074443	0.034570	2.830000	1.117474	0.457846	30.407709
12.216773	0.002708	0.062403	0.062462	84.290359	6.211811	1.199922	146.634041	146.634041	146.634041	7.054290	0.036759	2.830000	1.107400	0.455584	30.805093
12.392750	0.002786	0.063299	0.063361	84.517117	6.243539	1.196945	146.187791	146.187791	146.187791	7.033711	0.039092	2.830000	1.097143	0.453269	31.206540
12.571262	0.002867	0.064208	0.064272	84.743326	6.276342	1.193901	145.736449	145.736449	145.736449	7.012699	0.041577	2.830000	1.086702	0.450900	31.612042
12.752345	0.002950	0.065130	0.065197	84.968974	6.310262	1.190788	145.279990	145.279990	145.279990	6.991249	0.044227	2.830000	1.076078	0.448476	32.021591
12.936037	0.003036	0.066066	0.066135	85.194049	6.345343	1.187605	144.818388	144.818388	144.818388	6.969357	0.047052	2.830000	1.065270	0.445996	32.435172
13.122374	0.003124	0.067014	0.067087	85.418539	6.381629	1.184351	144.351622	144.351622	144.351622	6.947018	0.050065	2.830000	1.054279	0.443460	32.852771
13.311396	0.003214	0.067976	0.068052	85.642431	6.419169	1.181025	143.879667	143.879667	143.879667	6.924227	0.053278	2.830000	1.043104	0.440867	33.274369
13.503140	0.003307	0.068952	0.069031	85.865713	6.458013	1.177627	143.402502	143.402502	143.402502	6.900981	0.056706	2.830000	1.031748	0.438215	33.699943
13.697647	0.003403	0.069942	0.070024	86.088373	6.498215	1.174155	142.920109	142.920109	142.920109	6.877274	0.060365	2.830000	1.020210	0.435504	34.129468
13.894955	0.003502	0.070945	0.071032	86.310397	6.539829	1.170607	142.432467	142.432467	142.432467	6.853103	0.064269	2.830000	1.008491	0.432733	34.562916
14.095105	0.003603	0.071963	0.072053	86.531772	6.582914	1.166984	141.939559	141.939559	141.939559	6.828464	0.068437	2.830000	0.996593	0.429901	35.000254
14.298139	0.003708	0.072996	0.073090	86.752486	6.627531	1.163285	141.441370	141.441370	141.441370	6.803353	0.072889	2.830000	0.984517	0.427007	35.441444
14.504097	0.003815	0.074043	0.074141	86.972525	6.673745	1.159507	140.937884	140.937884	140.937884	6.777767	0.077643	2.830000	0.972266	0.424050	35.886446
14.713021	0.003926	0.075105	0.075208	87.191875	6.721623	1.155651	140.429087	140.429087	140.429087	6.751704	0.082722	2.830000	0.959840	0.421029	36.335214
14.924955	0.004040	0.076182	0.076289	87.410524	6.771238	1.151715	139.914969	139.914969	139.914969	6.725160	0.088151	2.830000	0.947243	0.417944	36.787698
15.139942	0.004157	0.077275	0.077387	87.628458	6.822663	1.147698	139.395518	139.395518	139.395518	6.698132	0.093953	2.830000	0.934477	0.414794	37.243842
15.358026	0.004277	0.078383	0.078500	87.845662	6.875979	1.143600	138.870726	138.870726	138.870726	6.670619	0.100158	2.830000	0.921545	0.411578	37.703587
15.579251	0.004401	0.079507	0.079628	88.062124	6.931270	1.139420	138.340585	138.340585	138.340585	6.642618	0.106794	2.830000	0.908450	0.408295	38.166867
15.803663	0.004528	0.080646	0.080774	88.277829	6.988625	1.135158	137.805089	137.805089	137.805089	6.614128	0.113894	2.830000	0.895196	0.404944	38.633609
16.031307	0.004660	0.081802	0.081935	88.492763	7.048136	1.130811	137.264235	137.264235	137.264235	6.585148	0.121492	2.830000	0.881786	0.401525	39.103736
16.262231	0.004795	0.082975	0.083113	88.706912	7.109905	1.126380	136.718020	136.718020	136.718020	6.555675	0.129626	2.830000	0.868225	0.398036	39.577162
16.496481	0.004934	0.084164	0.084308	88.920262	7.174034	1.121864	136.166444	136.166444	136.166444	6.525711	0.138337	2.830000	0.854517	0.394478	40.053796
16.734105	0.005076	0.085370	0.085520	89.132798	7.240636	1.117262	135.609506	135.609506	135.609506	6.495254	0.147669	2.830000	0.840668	0.390850	40.533539
16.975152	0.005223	0.086592	0.086750	89.344507	7.309830	1.112574	135.047210	135.047210	135.047210	6.464305	0.157669	2.830000	0.826681	0.387150	41.016284
17.219671	0.005375	0.087833	0.087997	89.555373	7.381740	1.107798	134.479561	134.479561	134.479561	6.432864	0.168389	2.830000	0.812564	0.383378	41.501916
17.467712	0.005530	0.089090	0.089262	89.765383	7.456499	1.102935	133.906565	133.906565	133.906565	6.400931	0.179885	2.830000	0.798321	0.379535	41.990309
17.719326	0.005691	0.090366	0.090545	89.974522	7.534250	1.097985	133.328230	133.328230	133.328230	6.368508	0.192218	2.830000	0.783959	0.375618	42.481330
17.974565	0.005855	0.091660	0.091846	90.182775	7.615144	1.092946	132.744566	132.744566	132.744566	6.335597	0.205453	2.830000	0.769485	0.371628	42.974834
18.233480	0.006025	0.092971	0.093166	90.390127	7.699341	1.087818	132.155584	132.155584	132.155584	6.302199	0.219662	2.830000	0.754905	0.367564	43.470666
18.496125	0.006199	0.094302	0.094505	90.596565	7.787013	1.082601	131.561300	131.561300	131.561300	6.268318	0.234923	2.830000	0.740228	0.363426	43.968660
18.762553	0.006379	0.095651	0.095863	90.802074	7.878344	1.077295	130.961728	130.961728	130.961728	6.233955	0.251321	2.830000	0.725460	0.359213	44.468634
19.032818	0.006564	0.097019	0.097241	91.006638	7.973530	1.071899	130.356887	130.356887	130.356887	6.199114	0.268947	2.830000	0.710610	0.354924	44.970396
19.306977	0.006754	0.098407	0.098638	91.210244	8.072780	1.066413	129.746795	129.746795	129.746795	6.163798	0.287902	2.830000	0.695687	0.350561	45.473738
19.585085	0.006949	0.099814	0.100055	91.412876	8.176321	1.060838	129.131474	129.131474	129.131474	6.128013	0.308295	2.830000	0.680699	0.346121	45.978436
19.867199	0.007150	0.101241	0.101493	91.614520	8.284393	1.055173	128.510948	128.510948	128.510948	6.091761	0.330245	2.830000	0.665657	0.341606	46.484249
20.153377	0.007357	0.102687	0.102951	91.815163	8.397255	1.049417	127.885243	127.885243	127.885243	6.055049	0.353882	2.830000	0.650568	0.337015	46.990916
20.443677	0.007570	0.104155	0.104429	92.014788	8.515188	1.043573	127.254385	127.254385	127.254385	6.017882	0.379346	2.830000	0.635444	0.332347	47.498159
20.738158	0.007789	0.105643	0.105929	92.213382	8.638493	1.037638	126.618404	126.618404	126.618404	5.980265	0.406794	2.830000	0.620295	0.327603	48.005676
21.036882	0.008015	0.107151	0.107451	92.410930	8.767492	1.031615	125.977331	125.977331	125.977331	5.942204	0.436393	2.830000	0.605131	0.322783	48.513140
21.339908	0.008247	0.108681	0.108994	92.607419	8.902538	1.025502	125.331200	125.331200	125.331200	5.903708	0.468328	2.830000	0.589964	0.317887	49.020200
21.647300	0.008485	0.110233	0.110559	92.802833	9.044010	1.019300	124.680046	124.680046	124.680046	5.864782	0.502801	2.830000	0.574806	0.312914	49.526474
21.959119	0.008731	0.111806	0.112146	92.997159	9.192319	1.013010	124.023906	124.023906	124.023906	5.825434	0.540033	2.830000	0.559668	0.307866	50.031551
22.275430	0.008983	0.113401	0.113756	93.190382	9.347912	1.006633	123.362818	123.362818	123.362818	5.785672	0.580264	2.830000	0.544561	0.302741	50.534983
22.596297	0.009243	0.115018	0.115389	93.382489	9.511273	1.000168	122.696825	122.696825	122.696825	5.745505	0.623759	2.830000	0.529500	0.297542	51.036286
22.921786	0.009511	0.116658	0.117045	93.573466	9.682932	0.993617	122.025968	122.025968	122.025968	5.704941	0.670808	2.830000	0.514497	0.292267	51.534929
23.251963	0.009786	0.118321	0.118725	93.763299	9.863465	0.986980	121.350292	121.350292	121.350292	5.663990	0.721728	2.830000	0.499564	0.286917	52.030339
23.586897	0.010069	0.120007	0.120429	93.951975	10.053503	0.980258	120.669845	120.669845	120.669845	5.622661	0.776865	2.830000	0.484715	0.281494	52.521888
23.926655	0.010360	0.121717	0.122157	94.139480	10.253736	0.973452	119.984673	119.984673	119.984673	5.580964	0.836600	2.830000	0.469964	0.275997	53.008889
24.271307	0.010659	0.123450	0.123910	94.325800	10.464924	0.966563	119.294828	119.294828	119.294828	5.538909	0.901350	2.830000	0.455324	0.270427	53.490590
24.620924	0.010967	0.125208	0.125687	94.510924	10.687900	0.959591	118.600361	118.600361	118.600361	5.496508	0.971572	2.830000	0.440811	0.264785	53.966166
24.975577	0.011284	0.126990	0.127490	94.694837	10.923583	0.952539	117.901326	117.901326	117.901326	5.453771	1.047763	2.830000	0.426437	0.259073	54.434706
25.335338	0.011611	0.128797	0.129319	94.877527	11.172988	0.945407	117.197778	117.197778	117.197778	5.410709	1.130473	2.830000	0.412218	0.253289	54.895210
25.700282	0.011946	0.130628	0.131173	95.058982	11.437241	0.938196	116.489774	116.489774	116.489774	5.367334	1.220297	2.830000	0.398169	0.247437	55.346567
26.070482	0.012291	0.132485	0.133054	95.239189	11.717591	0.930908	115.777372	115.777372	115.777372	5.323659	1.317890	2.830000	0.384303	0.241517	55.787548
26.446016	0.012647	0.134368	0.134962	95.418135	12.015426	0.923544	115.060633	115.060633	115.060633	5.279695	1.423963	2.830000	0.370637	0.235531	56.216784
26.826958	0.013012	0.136277	0.136896	95.595809	12.332300	0.916106	114.339618	114.339618	114.339618	5.235454	1.539292	2.830000	0.357186	0.229479	56.632749
27.213388	0.013388	0.138212	0.138859	95.772200	12.669948	0.908595	113.614390	113.614390	113.614390	5.190950	1.664721	2.830000	0.343964	0.223363	57.033733
27.605384	0.013774	0.140173	0.140848	95.947294	13.030319	0.901012	112.885013	112.885013	112.885013	5.146195	1.801164	2.830000	0.330987	0.217186	57.417817
28.003026	0.014172	0.142162	0.142867	96.121082	13.415609	0.893361	112.151554	112.151554	112.151554	5.101203	1.949608	2.830000	0.318270	0.210948	57.782837
28.406397	0.014581	0.144178	0.144913	96.293552	13.828298	0.885641	111.414080	111.414080	111.414080	5.055987	2.111116	2.830000	0.305828	0.204653	58.126345
28.815578	0.015002	0.146222	0.146989	96.464692	14.271196	0.877856	110.672660	110.672660	110.672660	5.010560	2.286827	2.830000	0.293677	0.198302	58.445560
29.230652	0.015435	0.148293	0.149094	96.634493	14.747501	0.870007	109.927362	109.927362	109.927362	4.964936	2.477953	2.830000	0.281832	0.191897	58.737308
29.651706	0.015881	0.150393	0.151229	96.802944	15.260860	0.862096	109.178259	109.178259	109.178259	4.919129	2.685776	2.830000	0.270308	0.185442	58.997952
30.078825	0.016339	0.152522	0.153394	96.970034	15.815457	0.854124	108.425421	108.425421	108.425421	4.873152	2.911634	2.830000	0.259120	0.178939	59.223308
30.512097	0.016811	0.154679	0.155590	97.135754	16.416100	0.846095	107.668924	107.668924	107.668924	4.827020	3.156916	2.830000	0.248283	0.172392	59.408530
30.951609	0.017296	0.156866	0.157817	97.300093	17.068342	0.838010	106.908839	106.908839	106.908839	4.780746	3.423035	2.830000	0.237811	0.165804	59.547985
31.397452	0.017795	0.159083	0.160075	97.463044	17.778624	0.829872	106.145244	106.145244	106.145244	4.734344	3.711403	2.830000	0.227720	0.159180	59.635084
31.849718	0.018308	0.161330	0.162365	97.624595	18.554440	0.821682	105.378214	105.378214	105.378214	4.687829	4.023392	2.830000	0.218023	0.152524	59.662078
32.308498	0.018836	0.163607	0.164688	97.784739	19.404552	0.813443	104.607826	104.607826	104.607826	4.641215	4.360290	2.830000	0.208734	0.145842	59.619793
32.773887	0.019379	0.165915	0.167043	97.943466	20.339241	0.805158	103.834158	103.834158	103.834158	4.594514	4.723232	2.830000	0.199867	0.139140	59.497305
33.245979	0.019937	0.168254	0.169431	98.100769	21.370611	0.796829	103.057289	103.057289	103.057289	4.547742	5.113134	2.830000	0.191436	0.132425	59.281515
33.724872	0.020512	0.170624	0.171853	98.256638	22.512957	0.788457	102.277299	102.277299	102.277299	4.500913	5.530591	2.830000	0.183454	0.125705	58.956606
34.210663	0.021103	0.173027	0.174309	98.411066	23.783198	0.780047	101.494267	101.494267	101.494267	4.454039	5.975781	2.830000	0.175933	0.118992	58.503347
34.703452	0.021710	0.175461	0.176799	98.564046	25.201367	0.771599	100.708274	100.708274	100.708274	4.407135	6.448339	2.830000	0.168885	0.112295	57.898183
35.203338	0.022336	0.177928	0.179325	98.715570	26.791139	0.763118	99.919401	99.919401	99.919401	4.360215	6.947230	2.830000	0.162323	0.105632	57.112062
35.710426	0.022979	0.180428	0.181886	98.865630	28.580329	0.754605	99.127732	99.127732	99.127732	4.313291	7.470617	2.830000	0.156258	0.099019	56.108910
36.224818	0.023640	0.182962	0.184483	99.014220	30.601207	0.746063	98.333347	98.333347	98.333347	4.266377	8.015737	2.830000	0.150700	0.092480	54.843681
36.746619	0.024321	0.185529	0.187116	99.161333	32.890303	0.737494	97.536330	97.536330	97.536330	4.219487	8.578797	2.830000	0.145660	0.086044	53.259904
37.275937	0.025020	0.188130	0.189786	99.306963	35.487061	0.728902	96.736764	96.736764	96.736764	4.172633	9.154903	2.830000	0.141149	0.079747	51.286726
37.812880	0.025740	0.190765	0.192494	99.451104	38.430103	0.720289	95.934734	95.934734	95.934734	4.125827	9.738047	2.830000	0.137174	0.073640	48.835678
38.357556	0.026480	0.193435	0.195239	99.593750	41.748869	0.711658	95.130322	95.130322	95.130322	4.079084	10.321170	2.830000	0.133746	0.067786	45.797865
38.910079	0.027242	0.196140	0.198023	99.734895	45.446955	0.703012	94.323614	94.323614	94.323614	4.032414	10.896300	2.830000	0.130871	0.062270	42.043446
39.470560	0.028025	0.198880	0.200845	99.874533	49.472192	0.694352	93.514694	93.514694	93.514694	3.985830	11.454795	2.830000	0.128558	0.057204	37.427344
40.039115	0.028830	0.201657	0.203707	100.012661	53.670016	0.685683	92.703647	92.703647	92.703647	3.939344	11.987666	2.830000	0.126814	0.052730	31.808384
40.615860	0.029658	0.204469	0.206609	100.149272	57.727844	0.677006	91.890557	91.890557	91.890557	3.892968	12.485981	2.830000	0.125643	0.049023	25.091561
41.200912	0.030510	0.207318	0.209551	100.284363	61.147595	0.668325	91.075510	91.075510	91.075510	3.846713	12.941302	2.830000	0.125053	0.046281	17.298051
41.794392	0.031386	0.210204	0.212534	100.417928	63.319992	0.659642	90.258592	90.258592	90.258592	3.800590	13.346137	2.830000	0.125047	0.044694	8.643230
42.396421	0.032287	0.213127	0.215558	100.549964	63.748535	0.650960	89.439887	89.439887	89.439887	3.754610	13.694330	2.830000	0.125629	0.044393	-0.437059
43.007121	0.033213	0.216087	0.218625	100.680468	62.316421	0.642282	88.619481	88.619481	88.619481	3.708784	13.981388	2.830000	0.126803	0.045413	-9.374750
43.626619	0.034166	0.219086	0.221734	100.809434	59.359826	0.633610	87.797459	87.797459	87.797459	3.663122	14.204663	2.830000	0.128572	0.047675	-17.647008
44.255040	0.035145	0.222122	0.224886	100.936860	55.470551	0.624948	86.973907	86.973907	86.973907	3.617634	14.363420	2.830000	0.130937	0.051018	-24.921652
44.892513	0.036153	0.225198	0.228081	101.062743	51.223591	0.616297	86.148910	86.148910	86.148910	3.572331	14.458754	2.830000	0.133899	0.055248	-31.085620
45.539168	0.037188	0.228312	0.231321	101.187080	47.026287	0.607661	85.322554	85.322554	85.322554	3.527221	14.493395	2.830000	0.137459	0.060179	-36.184152
46.195138	0.038254	0.231465	0.234605	101.309868	43.105292	0.599043	84.494923	84.494923	84.494923	3.482314	14.471428	2.830000	0.141615	0.065653	-40.341691
46.860558	0.039349	0.234658	0.237934	101.431105	39.555953	0.590444	83.666102	83.666102	83.666102	3.437619	14.397957	2.830000	0.146367	0.071544	-43.704918
47.535562	0.040475	0.237891	0.241310	101.550788	36.396313	0.581867	82.836177	82.836177	82.836177	3.393145	14.278766	2.830000	0.151713	0.077755	-46.412884
48.220290	0.041633	0.241164	0.244731	101.668915	33.605645	0.573316	82.005232	82.005232	82.005232	3.348901	14.119984	2.830000	0.157649	0.084212	-48.585492
48.914880	0.042823	0.244478	0.248200	101.785485	31.147231	0.564793	81.173352	81.173352	81.173352	3.304894	13.927803	2.830000	0.164172	0.090859	-50.321479
49.619476	0.044047	0.247832	0.251716	101.900496	28.980354	0.556299	80.340620	80.340620	80.340620	3.261132	13.708237	2.830000	0.171278	0.097652	-51.700384
50.334221	0.045306	0.251227	0.255280	102.013947	27.065956	0.547839	79.507121	79.507121	79.507121	3.217624	13.466953	2.830000	0.178962	0.104559	-52.785700
51.059262	0.046600	0.254664	0.258893	102.125837	25.368946	0.539413	78.672938	78.672938	78.672938	3.174377	13.209142	2.830000	0.187216	0.111554	-53.628031
51.794747	0.047930	0.258143	0.262555	102.236165	23.858820	0.531025	77.838154	77.838154	77.838154	3.131397	12.939455	2.830000	0.196036	0.118614	-54.267803
52.540826	0.049298	0.261663	0.266266	102.344930	22.509518	0.522677	77.002852	77.002852	77.002852	3.088693	12.661971	2.830000	0.205412	0.125725	-54.737478
53.297652	0.050703	0.265225	0.270028	102.452131	21.298962	0.514371	76.167116	76.167116	76.167116	3.046270	12.380198	2.830000	0.215338	0.132870	-55.063279
54.065379	0.052149	0.268830	0.273842	102.557770	20.208515	0.506109	75.331026	75.331026	75.331026	3.004135	12.097099	2.830000	0.225803	0.140040	-55.266541
54.844166	0.053634	0.272478	0.277706	102.661844	19.222449	0.497894	74.494664	74.494664	74.494664	2.962295	11.815135	2.830000	0.236799	0.147224	-55.364744
55.634170	0.055161	0.276168	0.281623	102.764356	18.327474	0.489728	73.658111	73.658111	73.658111	2.920755	11.536307	2.830000	0.248315	0.154413	-55.372315
56.435554	0.056731	0.279902	0.285593	102.865305	17.512325	0.481613	72.821449	72.821449	72.821449	2.879521	11.262215	2.830000	0.260340	0.161600	-55.301240
57.248482	0.058345	0.283678	0.289616	102.964691	16.767427	0.473551	71.984756	71.984756	71.984756	2.838600	10.994104	2.830000	0.272862	0.168780	-55.161553
58.073119	0.060003	0.287499	0.293693	103.062517	16.084606	0.465543	71.148112	71.148112	71.148112	2.797996	10.732923	2.830000	0.285870	0.175945	-54.961702
58.909635	0.061708	0.291362	0.297825	103.158782	15.456859	0.457593	70.311596	70.311596	70.311596	2.757714	10.479362	2.830000	0.299349	0.183090	-54.708849
59.758201	0.063460	0.295270	0.302012	103.253488	14.878161	0.449702	69.475286	69.475286	69.475286	2.717760	10.233900	2.830000	0.313287	0.190212	-54.409099
60.618990	0.065260	0.299221	0.306255	103.346636	14.343307	0.441872	68.639259	68.639259	68.639259	2.678138	9.996841	2.830000	0.327669	0.197305	-54.067688
61.492178	0.067110	0.303216	0.310554	103.438229	13.847782	0.434104	67.803591	67.803591	67.803591	2.638853	9.768347	2.830000	0.342481	0.204365	-53.689130
