Freq (hertz)	Ra (norm)	Xa (norm)	Za (norm)	SPL (dB)	Ze (ohms)	Xd (mm) 	WPhase (deg)	UPhase (deg)	CPhase (deg)	Delay (msec)	Efficiency (%)	Ein (volts)	Pin (watts)	Iin (amps)	ZePhase (deg)

10.000000	0.001815	0.051104	0.051137	76.305756	5.411634	0.714120	163.797876	163.797876	163.797876	4.521148	0.004532	2.830000	1.428703	0.522947	15.120788
10.144045	0.001867	0.051839	0.051873	76.551811	5.418017	0.713930	163.563405	163.563405	163.563405	4.521966	0.004807	2.830000	1.425545	0.522331	15.338369
10.290166	0.001922	0.052584	0.052619	76.797794	5.424600	0.713734	163.325513	163.325513	163.325513	4.522802	0.005098	2.830000	1.422300	0.521697	15.559068
10.438391	0.001977	0.053340	0.053377	77.043701	5.431389	0.713532	163.084149	163.084149	163.084149	4.523657	0.005408	2.830000	1.418966	0.521045	15.782929
10.588751	0.002035	0.054107	0.054145	77.289531	5.438392	0.713323	162.839261	162.839261	162.839261	4.524531	0.005737	2.830000	1.415540	0.520374	16.009994
10.741277	0.002094	0.054884	0.054924	77.535281	5.445616	0.713109	162.590798	162.590798	162.590798	4.525423	0.006086	2.830000	1.412021	0.519684	16.240310
10.896000	0.002154	0.055673	0.055715	77.780947	5.453067	0.712888	162.338705	162.338705	162.338705	4.526335	0.006457	2.830000	1.408405	0.518974	16.473922
11.052951	0.002217	0.056473	0.056517	78.026529	5.460755	0.712660	162.082929	162.082929	162.082929	4.527265	0.006850	2.830000	1.404690	0.518243	16.710875
11.212164	0.002281	0.057285	0.057330	78.272022	5.468687	0.712425	161.823415	161.823415	161.823415	4.528215	0.007268	2.830000	1.400874	0.517492	16.951215
11.373670	0.002347	0.058108	0.058155	78.517424	5.476872	0.712184	161.560106	161.560106	161.560106	4.529184	0.007712	2.830000	1.396954	0.516718	17.194991
11.537502	0.002415	0.058943	0.058992	78.762732	5.485318	0.711934	161.292948	161.292948	161.292948	4.530173	0.008184	2.830000	1.392927	0.515923	17.442248
11.703695	0.002485	0.059790	0.059841	79.007944	5.494034	0.711677	161.021881	161.021881	161.021881	4.531181	0.008685	2.830000	1.388791	0.515104	17.693036
11.872281	0.002557	0.060648	0.060702	79.253055	5.503030	0.711413	160.746848	160.746848	160.746848	4.532209	0.009218	2.830000	1.384544	0.514262	17.947402
12.043295	0.002631	0.061520	0.061576	79.498062	5.512315	0.711140	160.467789	160.467789	160.467789	4.533256	0.009784	2.830000	1.380182	0.513396	18.205396
12.216773	0.002708	0.062403	0.062462	79.742963	5.521900	0.710859	160.184644	160.184644	160.184644	4.534323	0.010385	2.830000	1.375702	0.512505	18.467067
12.392750	0.002786	0.063299	0.063361	79.987754	5.531795	0.710569	159.897353	159.897353	159.897353	4.535409	0.011024	2.830000	1.371102	0.511588	18.732466
12.571262	0.002867	0.064208	0.064272	80.232431	5.542012	0.710270	159.605853	159.605853	159.605853	4.536515	0.011703	2.830000	1.366379	0.510645	19.001642
12.752345	0.002950	0.065130	0.065197	80.476990	5.552561	0.709962	159.310081	159.310081	159.310081	4.537640	0.012425	2.830000	1.361530	0.509675	19.274647
12.936037	0.003036	0.066066	0.066135	80.721428	5.563456	0.709644	159.009974	159.009974	159.009974	4.538785	0.013193	2.830000	1.356551	0.508677	19.551533
13.122374	0.003124	0.067014	0.067087	80.965740	5.574707	0.709317	158.705466	158.705466	158.705466	4.539948	0.014009	2.830000	1.351441	0.507650	19.832351
13.311396	0.003214	0.067976	0.068052	81.209923	5.586329	0.708980	158.396493	158.396493	158.396493	4.541130	0.014877	2.830000	1.346195	0.506594	20.117155
13.503140	0.003307	0.068952	0.069031	81.453972	5.598334	0.708632	158.082986	158.082986	158.082986	4.542331	0.015800	2.830000	1.340810	0.505507	20.405996
13.697647	0.003403	0.069942	0.070024	81.697882	5.610738	0.708273	157.764879	157.764879	157.764879	4.543549	0.016782	2.830000	1.335284	0.504390	20.698928
13.894955	0.003502	0.070945	0.071032	81.941649	5.623554	0.707903	157.442102	157.442102	157.442102	4.544785	0.017827	2.830000	1.329613	0.503241	20.996006
14.095105	0.003603	0.071963	0.072053	82.185269	5.636797	0.707522	157.114587	157.114587	157.114587	4.546038	0.018938	2.830000	1.323794	0.502058	21.297283
14.298139	0.003708	0.072996	0.073090	82.428736	5.650485	0.707129	156.782261	156.782261	156.782261	4.547308	0.020121	2.830000	1.317824	0.500842	21.602813
14.504097	0.003815	0.074043	0.074141	82.672045	5.664633	0.706723	156.445054	156.445054	156.445054	4.548594	0.021380	2.830000	1.311698	0.499591	21.912653
14.713021	0.003926	0.075105	0.075208	82.915191	5.679260	0.706305	156.102892	156.102892	156.102892	4.549895	0.022720	2.830000	1.305414	0.498304	22.226855
14.924955	0.004040	0.076182	0.076289	83.158168	5.694382	0.705874	155.755702	155.755702	155.755702	4.551210	0.024146	2.830000	1.298969	0.496981	22.545477
15.139942	0.004157	0.077275	0.077387	83.400971	5.710020	0.705429	155.403408	155.403408	155.403408	4.552538	0.025665	2.830000	1.292358	0.495620	22.868574
15.358026	0.004277	0.078383	0.078500	83.643594	5.726194	0.704970	155.045935	155.045935	155.045935	4.553880	0.027283	2.830000	1.285579	0.494220	23.196202
15.579251	0.004401	0.079507	0.079628	83.886030	5.742924	0.704497	154.683205	154.683205	154.683205	4.555232	0.029006	2.830000	1.278627	0.492780	23.528416
15.803663	0.004528	0.080646	0.080774	84.128274	5.760231	0.704009	154.315141	154.315141	154.315141	4.556595	0.030842	2.830000	1.271500	0.491300	23.865273
16.031307	0.004660	0.081802	0.081935	84.370318	5.778140	0.703506	153.941663	153.941663	153.941663	4.557967	0.032798	2.830000	1.264194	0.489777	24.206830
16.262231	0.004795	0.082975	0.083113	84.612157	5.796674	0.702987	153.562690	153.562690	153.562690	4.559346	0.034883	2.830000	1.256704	0.488211	24.553141
16.496481	0.004934	0.084164	0.084308	84.853782	5.815858	0.702451	153.178142	153.178142	153.178142	4.560731	0.037106	2.830000	1.249029	0.486601	24.904264
16.734105	0.005076	0.085370	0.085520	85.095186	5.835718	0.701899	152.787937	152.787937	152.787937	4.562120	0.039475	2.830000	1.241163	0.484945	25.260254
16.975152	0.005223	0.086592	0.086750	85.336362	5.856281	0.701329	152.391989	152.391989	152.391989	4.563512	0.042002	2.830000	1.233105	0.483242	25.621167
17.219671	0.005375	0.087833	0.087997	85.577303	5.877578	0.700740	151.990216	151.990216	151.990216	4.564904	0.044697	2.830000	1.224849	0.481491	25.987059
17.467712	0.005530	0.089090	0.089262	85.817999	5.899638	0.700134	151.582532	151.582532	151.582532	4.566294	0.047573	2.830000	1.216392	0.479690	26.357985
17.719326	0.005691	0.090366	0.090545	86.058442	5.922494	0.699507	151.168849	151.168849	151.168849	4.567680	0.050642	2.830000	1.207732	0.477839	26.733999
17.974565	0.005855	0.091660	0.091846	86.298624	5.946178	0.698861	150.749080	150.749080	150.749080	4.569059	0.053917	2.830000	1.198864	0.475936	27.115155
18.233480	0.006025	0.092971	0.093166	86.538536	5.970726	0.698195	150.323136	150.323136	150.323136	4.570429	0.057414	2.830000	1.189786	0.473979	27.501508
18.496125	0.006199	0.094302	0.094505	86.778167	5.996176	0.697507	149.890928	149.890928	149.890928	4.571786	0.061149	2.830000	1.180493	0.471967	27.893108
18.762553	0.006379	0.095651	0.095863	87.017509	6.022567	0.696797	149.452365	149.452365	149.452365	4.573127	0.065138	2.830000	1.170982	0.469899	28.290009
19.032818	0.006564	0.097019	0.097241	87.256551	6.049939	0.696064	149.007354	149.007354	149.007354	4.574450	0.069401	2.830000	1.161251	0.467773	28.692260
19.306977	0.006754	0.098407	0.098638	87.495282	6.078336	0.695308	148.555804	148.555804	148.555804	4.575750	0.073956	2.830000	1.151295	0.465588	29.099911
19.585085	0.006949	0.099814	0.100055	87.733691	6.107804	0.694528	148.097621	148.097621	148.097621	4.577024	0.078827	2.830000	1.141113	0.463342	29.513009
19.867199	0.007150	0.101241	0.101493	87.971768	6.138391	0.693723	147.632710	147.632710	147.632710	4.578267	0.084036	2.830000	1.130701	0.461033	29.931601
20.153377	0.007357	0.102687	0.102951	88.209501	6.170149	0.692891	147.160976	147.160976	147.160976	4.579475	0.089608	2.830000	1.120056	0.458660	30.355731
20.443677	0.007570	0.104155	0.104429	88.446877	6.203131	0.692034	146.682323	146.682323	146.682323	4.580643	0.095570	2.830000	1.109176	0.456221	30.785442
20.738158	0.007789	0.105643	0.105929	88.683883	6.237395	0.691148	146.196654	146.196654	146.196654	4.581766	0.101952	2.830000	1.098058	0.453715	31.220772
21.036882	0.008015	0.107151	0.107451	88.920507	6.273001	0.690234	145.703870	145.703870	145.703870	4.582838	0.108787	2.830000	1.086700	0.451140	31.661760
21.339908	0.008247	0.108681	0.108994	89.156735	6.310012	0.689290	145.203874	145.203874	145.203874	4.583855	0.116107	2.830000	1.075099	0.448494	32.108440
21.647300	0.008485	0.110233	0.110559	89.392553	6.348497	0.688316	144.696567	144.696567	144.696567	4.584810	0.123952	2.830000	1.063254	0.445775	32.560842
21.959119	0.008731	0.111806	0.112146	89.627947	6.388528	0.687311	144.181849	144.181849	144.181849	4.585696	0.132361	2.830000	1.051163	0.442982	33.018996
22.275430	0.008983	0.113401	0.113756	89.862900	6.430180	0.686273	143.659620	143.659620	143.659620	4.586507	0.141378	2.830000	1.038824	0.440112	33.482925
22.596297	0.009243	0.115018	0.115389	90.097399	6.473536	0.685202	143.129779	143.129779	143.129779	4.587235	0.151052	2.830000	1.026236	0.437164	33.952647
22.921786	0.009511	0.116658	0.117045	90.331425	6.518680	0.684096	142.592227	142.592227	142.592227	4.587873	0.161434	2.830000	1.013399	0.434137	34.428178
23.251963	0.009786	0.118321	0.118725	90.564963	6.565705	0.682954	142.046861	142.046861	142.046861	4.588413	0.172582	2.830000	1.000312	0.431028	34.909527
23.586897	0.010069	0.120007	0.120429	90.797996	6.614709	0.681776	141.493580	141.493580	141.493580	4.588845	0.184556	2.830000	0.986974	0.427834	35.396697
23.926655	0.010360	0.121717	0.122157	91.030504	6.665795	0.680559	140.932284	140.932284	140.932284	4.589162	0.197424	2.830000	0.973385	0.424556	35.889685
24.271307	0.010659	0.123450	0.123910	91.262470	6.719075	0.679303	140.362871	140.362871	140.362871	4.589353	0.211259	2.830000	0.959547	0.421189	36.388482
24.620924	0.010967	0.125208	0.125687	91.493874	6.774666	0.678006	139.785241	139.785241	139.785241	4.589408	0.226141	2.830000	0.945460	0.417733	36.893069
24.975577	0.011284	0.126990	0.127490	91.724696	6.832698	0.676668	139.199292	139.199292	139.199292	4.589317	0.242156	2.830000	0.931125	0.414185	37.403420
25.335338	0.011611	0.128797	0.129319	91.954915	6.893303	0.675286	138.604925	138.604925	138.604925	4.589069	0.259401	2.830000	0.916545	0.410543	37.919499
25.700282	0.011946	0.130628	0.131173	92.184511	6.956630	0.673860	138.002039	138.002039	138.002039	4.588652	0.277980	2.830000	0.901721	0.406806	38.441259
26.070482	0.012291	0.132485	0.133054	92.413460	7.022832	0.672388	137.390537	137.390537	137.390537	4.588053	0.298006	2.830000	0.886657	0.402971	38.968643
26.446016	0.012647	0.134368	0.134962	92.641741	7.092079	0.670869	136.770321	136.770321	136.770321	4.587260	0.319605	2.830000	0.871356	0.399037	39.501581
26.826958	0.013012	0.136277	0.136896	92.869328	7.164549	0.669301	136.141293	136.141293	136.141293	4.586260	0.342913	2.830000	0.855822	0.395000	40.039987
27.213388	0.013388	0.138212	0.138859	93.096199	7.240437	0.667683	135.503360	135.503360	135.503360	4.585037	0.368081	2.830000	0.840060	0.390860	40.583763
27.605384	0.013774	0.140173	0.140848	93.322327	7.319952	0.666012	134.856426	134.856426	134.856426	4.583579	0.395275	2.830000	0.824076	0.386615	41.132791
28.003026	0.014172	0.142162	0.142867	93.547687	7.403319	0.664289	134.200399	134.200399	134.200399	4.581868	0.424677	2.830000	0.807876	0.382261	41.686938
28.406397	0.014581	0.144178	0.144913	93.772251	7.490782	0.662511	133.535191	133.535191	133.535191	4.579890	0.456485	2.830000	0.791467	0.377798	42.246047
28.815578	0.015002	0.146222	0.146989	93.995993	7.582604	0.660676	132.860713	132.860713	132.860713	4.577627	0.490922	2.830000	0.774856	0.373223	42.809941
29.230652	0.015435	0.148293	0.149094	94.218883	7.679072	0.658783	132.176880	132.176880	132.176880	4.575062	0.528231	2.830000	0.758052	0.368534	43.378415
29.651706	0.015881	0.150393	0.151229	94.440892	7.780496	0.656830	131.483610	131.483610	131.483610	4.572178	0.568679	2.830000	0.741065	0.363730	43.951240
30.078825	0.016339	0.152522	0.153394	94.661989	7.887213	0.654815	130.780822	130.780822	130.780822	4.568955	0.612564	2.830000	0.723905	0.358809	44.528153
30.512097	0.016811	0.154679	0.155590	94.882144	7.999591	0.652738	130.068442	130.068442	130.068442	4.565375	0.660215	2.830000	0.706583	0.353768	45.108860
30.951609	0.017296	0.156866	0.157817	95.101325	8.118030	0.650595	129.346396	129.346396	129.346396	4.561417	0.711995	2.830000	0.689112	0.348607	45.693025
31.397452	0.017795	0.159083	0.160075	95.319497	8.242970	0.648386	128.614617	128.614617	128.614617	4.557061	0.768306	2.830000	0.671506	0.343323	46.280273
31.849718	0.018308	0.161330	0.162365	95.536629	8.374889	0.646109	127.873039	127.873039	127.873039	4.552285	0.829597	2.830000	0.653778	0.337915	46.870181
32.308498	0.018836	0.163607	0.164688	95.752683	8.514314	0.643761	127.121605	127.121605	127.121605	4.547068	0.896364	2.830000	0.635943	0.332381	47.462272
32.773887	0.019379	0.165915	0.167043	95.967626	8.661825	0.641341	126.360259	126.360259	126.360259	4.541388	0.969158	2.830000	0.618020	0.326721	48.056012
33.245979	0.019937	0.168254	0.169431	96.181421	8.818059	0.638848	125.588953	125.588953	125.588953	4.535221	1.048594	2.830000	0.600025	0.320932	48.650798
33.724872	0.020512	0.170624	0.171853	96.394029	8.983721	0.636279	124.807644	124.807644	124.807644	4.528545	1.135355	2.830000	0.581977	0.315014	49.245955
34.210663	0.021103	0.173027	0.174309	96.605412	9.159590	0.633633	124.016294	124.016294	124.016294	4.521334	1.230202	2.830000	0.563896	0.308966	49.840721
34.703452	0.021710	0.175461	0.176799	96.815533	9.346534	0.630908	123.214874	123.214874	123.214874	4.513565	1.333985	2.830000	0.545804	0.302786	50.434238
35.203338	0.022336	0.177928	0.179325	97.024349	9.545515	0.628103	122.403359	122.403359	122.403359	4.505213	1.447649	2.830000	0.527723	0.296474	51.025542
35.710426	0.022979	0.180428	0.181886	97.231821	9.757608	0.625215	121.581736	121.581736	121.581736	4.496253	1.572250	2.830000	0.509677	0.290030	51.613540
36.224818	0.023640	0.182962	0.184483	97.437907	9.984015	0.622243	120.749994	120.749994	120.749994	4.486660	1.708966	2.830000	0.491690	0.283453	52.197001
36.746619	0.024321	0.185529	0.187116	97.642565	10.226087	0.619185	119.908136	119.908136	119.908136	4.476408	1.859113	2.830000	0.473789	0.276743	52.774528
37.275937	0.025020	0.188130	0.189786	97.845751	10.485343	0.616040	119.056169	119.056169	119.056169	4.465472	2.024154	2.830000	0.456001	0.269901	53.344536
37.812880	0.025740	0.190765	0.192494	98.047422	10.763501	0.612806	118.194113	118.194113	118.194113	4.453825	2.205725	2.830000	0.438354	0.262926	53.905220
38.357556	0.026480	0.193435	0.195239	98.247533	11.062507	0.609482	117.321995	117.321995	117.321995	4.441443	2.405644	2.830000	0.420878	0.255819	54.454521
38.910079	0.027242	0.196140	0.198023	98.446040	11.384576	0.606066	116.439853	116.439853	116.439853	4.428300	2.625933	2.830000	0.403603	0.248582	54.990081
39.470560	0.028025	0.198880	0.200845	98.642896	11.732240	0.602557	115.547734	115.547734	115.547734	4.414371	2.868834	2.830000	0.386561	0.241216	55.509191
40.039115	0.028830	0.201657	0.203707	98.838057	12.108401	0.598953	114.645700	114.645700	114.645700	4.399631	3.136826	2.830000	0.369785	0.233722	56.008726
40.615860	0.029658	0.204469	0.206609	99.031476	12.516404	0.595255	113.733818	113.733818	113.733818	4.384056	3.432640	2.830000	0.353308	0.226103	56.485065
41.200912	0.030510	0.207318	0.209551	99.223106	12.960119	0.591459	112.812172	112.812172	112.812172	4.367623	3.759265	2.830000	0.337165	0.218362	56.933996
41.794392	0.031386	0.210204	0.212534	99.412901	13.444048	0.587566	111.880855	111.880855	111.880855	4.350308	4.119956	2.830000	0.321390	0.210502	57.350589
42.396421	0.032287	0.213127	0.215558	99.600813	13.973454	0.583575	110.939973	110.939973	110.939973	4.332091	4.518219	2.830000	0.306019	0.202527	57.729049
43.007121	0.033213	0.216087	0.218625	99.786795	14.554518	0.579485	109.989645	109.989645	109.989645	4.312949	4.957793	2.830000	0.291089	0.194441	58.062513
43.626619	0.034166	0.219086	0.221734	99.970802	15.194545	0.575295	109.030002	109.030002	109.030002	4.292864	5.442594	2.830000	0.276636	0.186251	58.342811
44.255040	0.035145	0.222122	0.224886	100.152785	15.902215	0.571005	108.061188	108.061188	108.061188	4.271817	5.976642	2.830000	0.262697	0.177963	58.560140
44.892513	0.036153	0.225198	0.228081	100.332698	16.687902	0.566615	107.083361	107.083361	107.083361	4.249791	6.563939	2.830000	0.249310	0.169584	58.702649
45.539168	0.037188	0.228312	0.231321	100.510496	17.564074	0.562124	106.096693	106.096693	106.096693	4.226771	7.208293	2.830000	0.236511	0.161124	58.755897
46.195138	0.038254	0.231465	0.234605	100.686131	18.545808	0.557533	105.101367	105.101367	105.101367	4.202744	7.913078	2.830000	0.224338	0.152595	58.702128
46.860558	0.039349	0.234658	0.237934	100.859561	19.651428	0.552842	104.097582	104.097582	104.097582	4.177699	8.680915	2.830000	0.212826	0.144010	58.519309
47.535562	0.040475	0.237891	0.241310	101.030739	20.903301	0.548052	103.085548	103.085548	103.085548	4.151625	9.513264	2.830000	0.202013	0.135385	58.179824
48.220290	0.041633	0.241164	0.244731	101.199623	22.328812	0.543162	102.065492	102.065492	102.065492	4.124516	10.409919	2.830000	0.191933	0.126742	57.648712
48.914880	0.042823	0.244478	0.248200	101.366169	23.961489	0.538175	101.037652	101.037652	101.037652	4.096367	11.368432	2.830000	0.182621	0.118106	56.881251
49.619476	0.044047	0.247832	0.251716	101.530337	25.842160	0.533090	100.002278	100.002278	100.002278	4.067175	12.383479	2.830000	0.174111	0.109511	55.819658
50.334221	0.045306	0.251227	0.255280	101.692087	28.019838	0.527910	98.959637	98.959637	98.959637	4.036941	13.446233	2.830000	0.166434	0.101000	54.388625
51.059262	0.046600	0.254664	0.258893	101.851378	30.551445	0.522635	97.910004	97.910004	97.910004	4.005667	14.543844	2.830000	0.159622	0.092631	52.489395
51.794747	0.047930	0.258143	0.262555	102.008174	33.498456	0.517268	96.853670	96.853670	96.853670	3.973359	15.659125	2.830000	0.153704	0.084482	49.992386
52.540826	0.049298	0.261663	0.266266	102.162440	36.916208	0.511810	95.790935	95.790935	95.790935	3.940026	16.770615	2.830000	0.148706	0.076660	46.729264
53.297652	0.050703	0.265225	0.270028	102.314140	40.827492	0.506263	94.722113	94.722113	94.722113	3.905678	17.853130	2.830000	0.144655	0.069316	42.488051
54.065379	0.052149	0.268830	0.273842	102.463243	45.166730	0.500631	93.647528	93.647528	93.647528	3.870330	18.878903	2.830000	0.141573	0.062657	37.021160
54.844166	0.053634	0.272478	0.277706	102.609718	49.682137	0.494915	92.567512	92.567512	92.567512	3.833999	19.819293	2.830000	0.139482	0.056962	30.087858
55.634170	0.055161	0.276168	0.281623	102.753538	53.818225	0.489118	91.482410	91.482410	91.482410	3.796705	20.646932	2.830000	0.138399	0.052584	21.563126
56.435554	0.056731	0.279902	0.285593	102.894675	56.706552	0.483244	90.392573	90.392573	90.392573	3.758470	21.338037	2.830000	0.138340	0.049906	11.619296
57.248482	0.058345	0.283678	0.289616	103.033106	57.479904	0.477295	89.298361	89.298361	89.298361	3.719322	21.874517	2.830000	0.139318	0.049235	0.872716
58.073119	0.060003	0.287499	0.293693	103.168809	55.848587	0.471275	88.200143	88.200143	88.200143	3.679288	22.245525	2.830000	0.141342	0.050673	-9.726490
58.909635	0.061708	0.291362	0.297825	103.301765	52.341362	0.465188	87.098291	87.098291	87.098291	3.638400	22.448166	2.830000	0.144421	0.054068	-19.291809
59.758201	0.063460	0.295270	0.302012	103.431957	47.890074	0.459038	85.993184	85.993184	85.993184	3.596693	22.487293	2.830000	0.148557	0.059094	-27.338094
60.618990	0.065260	0.299221	0.306255	103.559372	43.286693	0.452828	84.885206	84.885206	84.885206	3.554201	22.374468	2.830000	0.153751	0.065378	-33.798524
61.492178	0.067110	0.303216	0.310554	103.683997	38.983936	0.446562	83.774744	83.774744	83.774744	3.510966	22.126350	2.830000	0.160002	0.072594	-38.847336
