Freq (hertz)	Ra (norm)	Xa (norm)	Za (norm)	SPL (dB)	Ze (ohms)	Xd (mm) 	WPhase (deg)	UPhase (deg)	CPhase (deg)	Delay (msec)	Efficiency (%)	Ein (volts)	Pin (watts)	Iin (amps)	ZePhase (deg)

10.000000	0.001391	0.102283	0.102292	80.963652	6.083986	0.825534	144.787122	144.787122	144.787122	8.635305	0.017144	2.830000	1.103764	0.465156	33.020307
10.144045	0.001435	0.103788	0.103798	81.193229	6.116022	0.822702	144.340316	144.340316	144.340316	8.597208	0.018254	2.830000	1.092947	0.462719	33.422390
10.290166	0.001480	0.105317	0.105327	81.422469	6.149035	0.819817	143.889089	143.889089	143.889089	8.558682	0.019439	2.830000	1.081978	0.460235	33.827646
10.438391	0.001527	0.106869	0.106880	81.651373	6.183059	0.816880	143.433429	143.433429	143.433429	8.519740	0.020703	2.830000	1.070857	0.457702	34.236039
10.588751	0.001576	0.108446	0.108457	81.879939	6.218127	0.813891	142.973325	142.973325	142.973325	8.480396	0.022054	2.830000	1.059586	0.455121	34.647534
10.741277	0.001626	0.110046	0.110058	82.108168	6.254274	0.810849	142.508765	142.508765	142.508765	8.440665	0.023497	2.830000	1.048167	0.452491	35.062091
10.896000	0.001678	0.111671	0.111684	82.336061	6.291536	0.807754	142.039736	142.039736	142.039736	8.400562	0.025040	2.830000	1.036602	0.449811	35.479669
11.052951	0.001732	0.113322	0.113335	82.563618	6.329951	0.804607	141.566227	141.566227	141.566227	8.360104	0.026688	2.830000	1.024893	0.447081	35.900224
11.212164	0.001788	0.114998	0.115012	82.790840	6.369559	0.801406	141.088226	141.088226	141.088226	8.319308	0.028451	2.830000	1.013043	0.444301	36.323709
11.373670	0.001846	0.116700	0.116715	83.017729	6.410401	0.798151	140.605721	140.605721	140.605721	8.278194	0.030335	2.830000	1.001054	0.441470	36.750076
11.537502	0.001905	0.118429	0.118444	83.244287	6.452520	0.794844	140.118700	140.118700	140.118700	8.236782	0.032352	2.830000	0.988928	0.438588	37.179272
11.703695	0.001967	0.120185	0.120201	83.470517	6.495959	0.791482	139.627150	139.627150	139.627150	8.195092	0.034509	2.830000	0.976670	0.435655	37.611245
11.872281	0.002031	0.121968	0.121985	83.696421	6.540767	0.788068	139.131057	139.131057	139.131057	8.153147	0.036819	2.830000	0.964282	0.432671	38.045937
12.043295	0.002098	0.123780	0.123797	83.922003	6.586992	0.784600	138.630408	138.630408	138.630408	8.110970	0.039292	2.830000	0.951767	0.429635	38.483289
12.216773	0.002167	0.125620	0.125638	84.147266	6.634684	0.781079	138.125188	138.125188	138.125188	8.068587	0.041941	2.830000	0.939130	0.426546	38.923239
12.392750	0.002238	0.127488	0.127508	84.372215	6.683896	0.777505	137.615381	137.615381	137.615381	8.026022	0.044779	2.830000	0.926374	0.423406	39.365721
12.571262	0.002312	0.129387	0.129408	84.596855	6.734685	0.773878	137.100972	137.100972	137.100972	7.983302	0.047820	2.830000	0.913502	0.420213	39.810667
12.752345	0.002388	0.131316	0.131337	84.821191	6.787109	0.770198	136.581942	136.581942	136.581942	7.940456	0.051081	2.830000	0.900520	0.416967	40.258008
12.936037	0.002468	0.133275	0.133298	85.045229	6.841227	0.766466	136.058273	136.058273	136.058273	7.897513	0.054579	2.830000	0.887432	0.413668	40.707667
13.122374	0.002550	0.135265	0.135289	85.268975	6.897105	0.762681	135.529943	135.529943	135.529943	7.854503	0.058331	2.830000	0.874242	0.410317	41.159569
13.311396	0.002635	0.137288	0.137313	85.492437	6.954808	0.758845	134.996931	134.996931	134.996931	7.811458	0.062359	2.830000	0.860955	0.406913	41.613634
13.503140	0.002724	0.139342	0.139369	85.715622	7.014408	0.754957	134.459214	134.459214	134.459214	7.768412	0.066683	2.830000	0.847576	0.403455	42.069777
13.697647	0.002816	0.141430	0.141458	85.938538	7.075978	0.751017	133.916763	133.916763	133.916763	7.725398	0.071329	2.830000	0.834110	0.399945	42.527911
13.894955	0.002911	0.143552	0.143581	86.161195	7.139595	0.747027	133.369553	133.369553	133.369553	7.682452	0.076321	2.830000	0.820563	0.396381	42.987946
14.095105	0.003010	0.145708	0.145739	86.383601	7.205341	0.742987	132.817550	132.817550	132.817550	7.639611	0.081687	2.830000	0.806940	0.392764	43.449787
14.298139	0.003113	0.147898	0.147931	86.605768	7.273301	0.738898	132.260723	132.260723	132.260723	7.596912	0.087459	2.830000	0.793248	0.389094	43.913338
14.504097	0.003220	0.150125	0.150160	86.827706	7.343567	0.734759	131.699035	131.699035	131.699035	7.554395	0.093669	2.830000	0.779491	0.385371	44.378494
14.713021	0.003331	0.152388	0.152424	87.049426	7.416232	0.730572	131.132445	131.132445	131.132445	7.512101	0.100353	2.830000	0.765676	0.381595	44.845152
14.924955	0.003446	0.154688	0.154726	87.270942	7.491398	0.726337	130.560911	130.560911	130.560911	7.470069	0.107553	2.830000	0.751810	0.377767	45.313200
15.139942	0.003566	0.157026	0.157066	87.492265	7.569171	0.722054	129.984386	129.984386	129.984386	7.428345	0.115309	2.830000	0.737898	0.373885	45.782523
15.358026	0.003691	0.159402	0.159445	87.713409	7.649662	0.717726	129.402819	129.402819	129.402819	7.386971	0.123671	2.830000	0.723948	0.369951	46.253002
15.579251	0.003820	0.161818	0.161863	87.934390	7.732990	0.713352	128.816154	128.816154	128.816154	7.345992	0.132689	2.830000	0.709966	0.365965	46.724512
15.803663	0.003955	0.164274	0.164321	88.155222	7.819282	0.708933	128.224331	128.224331	128.224331	7.305456	0.142421	2.830000	0.695958	0.361926	47.196923
16.031307	0.004095	0.166770	0.166821	88.375921	7.908668	0.704470	127.627286	127.627286	127.627286	7.265411	0.152927	2.830000	0.681933	0.357835	47.670101
16.262231	0.004241	0.169309	0.169362	88.596503	8.001292	0.699965	127.024947	127.024947	127.024947	7.225903	0.164277	2.830000	0.667896	0.353693	48.143902
16.496481	0.004393	0.171890	0.171946	88.816987	8.097303	0.695417	126.417240	126.417240	126.417240	7.186985	0.176543	2.830000	0.653856	0.349499	48.618181
16.734105	0.004551	0.174515	0.174575	89.037389	8.196860	0.690828	125.804080	125.804080	125.804080	7.148707	0.189808	2.830000	0.639820	0.345254	49.092781
16.975152	0.004716	0.177185	0.177247	89.257731	8.300132	0.686199	125.185381	125.185381	125.185381	7.111121	0.204162	2.830000	0.625795	0.340958	49.567541
17.219671	0.004888	0.179899	0.179966	89.478029	8.407301	0.681531	124.561045	124.561045	124.561045	7.074281	0.219703	2.830000	0.611789	0.336612	50.042291
17.467712	0.005067	0.182661	0.182731	89.698307	8.518560	0.676825	123.930971	123.930971	123.930971	7.038242	0.236539	2.830000	0.597809	0.332216	50.516853
17.719326	0.005254	0.185469	0.185543	89.918583	8.634113	0.672082	123.295046	123.295046	123.295046	7.003059	0.254790	2.830000	0.583863	0.327770	50.991039
17.974565	0.005448	0.188326	0.188405	90.138881	8.754181	0.667304	122.653153	122.653153	122.653153	6.968788	0.274586	2.830000	0.569959	0.323274	51.464650
18.233480	0.005651	0.191232	0.191316	90.359223	8.878999	0.662491	122.005162	122.005162	122.005162	6.935489	0.296074	2.830000	0.556105	0.318730	51.937478
18.496125	0.005863	0.194189	0.194278	90.579632	9.008820	0.657644	121.350938	121.350938	121.350938	6.903219	0.319412	2.830000	0.542309	0.314137	52.409302
18.762553	0.006085	0.197198	0.197292	90.800133	9.143914	0.652765	120.690334	120.690334	120.690334	6.872040	0.344777	2.830000	0.528578	0.309495	52.879888
19.032818	0.006316	0.200259	0.200359	91.020750	9.284573	0.647856	120.023192	120.023192	120.023192	6.842011	0.372364	2.830000	0.514922	0.304807	53.348987
19.306977	0.006558	0.203374	0.203480	91.241508	9.431109	0.642916	119.349344	119.349344	119.349344	6.813195	0.402390	2.830000	0.501347	0.300071	53.816335
19.585085	0.006810	0.206545	0.206657	91.462433	9.583860	0.637948	118.668611	118.668611	118.668611	6.785655	0.435091	2.830000	0.487862	0.295288	54.281650
19.867199	0.007074	0.209772	0.209891	91.683552	9.743190	0.632953	117.980802	117.980802	117.980802	6.759454	0.470734	2.830000	0.474476	0.290459	54.744629
20.153377	0.007350	0.213056	0.213183	91.904892	9.909493	0.627932	117.285713	117.285713	117.285713	6.734659	0.509610	2.830000	0.461196	0.285585	55.204950
20.443677	0.007639	0.216400	0.216535	92.126481	10.083194	0.622886	116.583126	116.583126	116.583126	6.711334	0.552045	2.830000	0.448031	0.280665	55.662264
20.738158	0.007942	0.219804	0.219947	92.348346	10.264755	0.617817	115.872810	115.872810	115.872810	6.689547	0.598400	2.830000	0.434988	0.275701	56.116199
21.036882	0.008258	0.223269	0.223422	92.570517	10.454677	0.612725	115.154519	115.154519	115.154519	6.669364	0.649075	2.830000	0.422076	0.270692	56.566348
21.339908	0.008590	0.226798	0.226961	92.793021	10.653506	0.607614	114.427993	114.427993	114.427993	6.650855	0.704516	2.830000	0.409304	0.265640	57.012276
21.647300	0.008938	0.230392	0.230565	93.015888	10.861836	0.602482	113.692954	113.692954	113.692954	6.634087	0.765216	2.830000	0.396679	0.260545	57.453507
21.959119	0.009302	0.234051	0.234236	93.239146	11.080317	0.597333	112.949108	112.949108	112.949108	6.619130	0.831728	2.830000	0.384209	0.255408	57.889522
22.275430	0.009684	0.237778	0.237976	93.462826	11.309658	0.592167	112.196143	112.196143	112.196143	6.606055	0.904663	2.830000	0.371903	0.250229	58.319758
22.596297	0.010086	0.241575	0.241786	93.686957	11.550636	0.586985	111.433731	111.433731	111.433731	6.594932	0.984704	2.830000	0.359770	0.245008	58.743595
22.921786	0.010507	0.245443	0.245667	93.911567	11.804108	0.581790	110.661521	110.661521	110.661521	6.585832	1.072609	2.830000	0.347816	0.239747	59.160354
23.251963	0.010949	0.249383	0.249623	94.136686	12.071012	0.576581	109.879146	109.879146	109.879146	6.578826	1.169224	2.830000	0.336051	0.234446	59.569286
23.586897	0.011413	0.253397	0.253654	94.362342	12.352386	0.571361	109.086216	109.086216	109.086216	6.573985	1.275491	2.830000	0.324483	0.229106	59.969564
23.926655	0.011901	0.257488	0.257763	94.588564	12.649377	0.566131	108.282319	108.282319	108.282319	6.571380	1.392456	2.830000	0.313119	0.223726	60.360272
24.271307	0.012414	0.261656	0.261951	94.815378	12.963255	0.560892	107.467023	107.467023	107.467023	6.571081	1.521286	2.830000	0.301968	0.218309	60.740391
24.620924	0.012954	0.265905	0.266220	95.042811	13.295434	0.555644	106.639872	106.639872	106.639872	6.573160	1.663278	2.830000	0.291039	0.212855	61.108784
24.975577	0.013522	0.270234	0.270572	95.270889	13.647485	0.550391	105.800385	105.800385	105.800385	6.577684	1.819870	2.830000	0.280339	0.207364	61.464180
25.335338	0.014120	0.274648	0.275010	95.499635	14.021165	0.545131	104.948056	104.948056	104.948056	6.584723	1.992661	2.830000	0.269876	0.201838	61.805153
25.700282	0.014750	0.279146	0.279536	95.729074	14.418442	0.539868	104.082356	104.082356	104.082356	6.594343	2.183421	2.830000	0.259659	0.196276	62.130094
26.070482	0.015413	0.283733	0.284151	95.959224	14.841525	0.534601	103.202728	103.202728	103.202728	6.606609	2.394107	2.830000	0.249697	0.190681	62.437186
26.446016	0.016112	0.288408	0.288858	96.190107	15.292906	0.529332	102.308589	102.308589	102.308589	6.621582	2.626874	2.830000	0.239997	0.185053	62.724368
26.826958	0.016850	0.293175	0.293659	96.421738	15.775399	0.524062	101.399326	101.399326	101.399326	6.639323	2.884095	2.830000	0.230568	0.179393	62.989292
27.213388	0.017627	0.298036	0.298557	96.654131	16.292195	0.518792	100.474302	100.474302	100.474302	6.659888	3.168365	2.830000	0.221418	0.173703	63.229274
27.605384	0.018448	0.302992	0.303553	96.887298	16.846929	0.513524	99.532848	99.532848	99.532848	6.683328	3.482509	2.830000	0.212555	0.167983	63.441233
28.003026	0.019314	0.308046	0.308651	97.121245	17.443749	0.508257	98.574269	98.574269	98.574269	6.709689	3.829590	2.830000	0.203989	0.162236	63.621617
28.406397	0.020229	0.313200	0.313852	97.355978	18.087410	0.502992	97.597838	97.597838	97.597838	6.739012	4.212896	2.830000	0.195727	0.156462	63.766313
28.815578	0.021195	0.318455	0.319160	97.591496	18.783384	0.497732	96.602802	96.602802	96.602802	6.771331	4.635929	2.830000	0.187779	0.150665	63.870537
29.230652	0.022216	0.323814	0.324575	97.827794	19.537991	0.492476	95.588377	95.588377	95.588377	6.806671	5.102375	2.830000	0.180153	0.144846	63.928695
29.651706	0.023294	0.329279	0.330102	98.064861	20.358557	0.487225	94.553753	94.553753	94.553753	6.845049	5.616060	2.830000	0.172858	0.139008	63.934213
30.078825	0.024435	0.334852	0.335742	98.302683	21.253613	0.481981	93.498089	93.498089	93.498089	6.886470	6.180878	2.830000	0.165902	0.133154	63.879325
30.512097	0.025641	0.340534	0.341498	98.541236	22.233125	0.476742	92.420521	92.420521	92.420521	6.930927	6.800700	2.830000	0.159296	0.127288	63.754802
30.951609	0.026917	0.346328	0.347372	98.780492	23.308781	0.471512	91.320157	91.320157	91.320157	6.978400	7.479248	2.830000	0.153047	0.121413	63.549614
31.397452	0.028266	0.352234	0.353367	99.020415	24.494333	0.466289	90.196082	90.196082	90.196082	7.028852	8.219937	2.830000	0.147166	0.115537	63.250490
31.849718	0.029694	0.358256	0.359484	99.260959	25.805999	0.461074	89.047362	89.047362	89.047362	7.082229	9.025672	2.830000	0.141661	0.109664	62.841367
32.308498	0.031204	0.364394	0.365727	99.502072	27.262940	0.455869	87.873042	87.873042	87.873042	7.138456	9.898618	2.830000	0.136542	0.103804	62.302669
32.773887	0.032803	0.370649	0.372097	99.743691	28.887782	0.450673	86.672152	86.672152	86.672152	7.197436	10.839929	2.830000	0.131819	0.097965	61.610379
33.245979	0.034494	0.377022	0.378597	99.985743	30.707167	0.445487	85.443715	85.443715	85.443715	7.259048	11.849450	2.830000	0.127500	0.092161	60.734847
33.724872	0.036284	0.383515	0.385228	100.228144	32.752231	0.440310	84.186743	84.186743	84.186743	7.323144	12.925420	2.830000	0.123596	0.086406	59.639243
34.210663	0.038178	0.390128	0.391992	100.470799	35.058805	0.435145	82.900251	82.900251	82.900251	7.389544	14.064177	2.830000	0.120116	0.080722	58.277595
34.703452	0.040181	0.396861	0.398890	100.713600	37.666952	0.429990	81.583257	81.583257	81.583257	7.458037	15.259913	2.830000	0.117069	0.075132	56.592363
35.203338	0.042299	0.403715	0.405925	100.956428	40.619026	0.424846	80.234797	80.234797	80.234797	7.528377	16.504512	2.830000	0.114465	0.069672	54.511564
35.710426	0.044538	0.410688	0.413096	101.199150	43.954783	0.419714	78.853923	78.853923	78.853923	7.600280	17.787498	2.830000	0.112314	0.064384	51.945753
36.224818	0.046905	0.417781	0.420406	101.441619	47.700927	0.414594	77.439723	77.439723	77.439723	7.673422	19.096145	2.830000	0.110624	0.059328	48.785702
36.746619	0.049405	0.424993	0.427855	101.683674	51.850971	0.409485	75.991323	75.991323	75.991323	7.747437	20.415755	2.830000	0.109405	0.054579	44.902814
37.275937	0.052044	0.432321	0.435442	101.925143	56.330320	0.404389	74.507905	74.507905	74.507905	7.821915	21.730118	2.830000	0.108664	0.050239	40.156485
37.812880	0.054828	0.439764	0.443169	102.165835	60.944331	0.399306	72.988713	72.988713	72.988713	7.896404	23.022143	2.830000	0.108411	0.046436	34.415617
38.357556	0.057764	0.447320	0.451034	102.405551	65.321579	0.394235	71.433071	71.433071	71.433071	7.970404	24.274602	2.830000	0.108652	0.043324	27.603108
38.910079	0.060855	0.454986	0.459037	102.644075	68.897846	0.389178	69.840394	69.840394	69.840394	8.043373	25.470931	2.830000	0.109395	0.041075	19.765064
39.470560	0.064108	0.462759	0.467178	102.881181	71.019054	0.384135	68.210205	68.210205	68.210205	8.114728	26.596019	2.830000	0.110646	0.039848	11.140751
40.039115	0.067528	0.470635	0.475455	103.116631	71.195380	0.379106	66.542146	66.542146	66.542146	8.183846	27.636885	2.830000	0.112411	0.039750	2.173957
40.615860	0.071118	0.478612	0.483867	103.350178	69.367601	0.374092	64.835998	64.835998	64.835998	8.250071	28.583201	2.830000	0.114694	0.040797	-6.585265
41.200912	0.074882	0.486685	0.492412	103.581570	65.944998	0.369094	63.091691	63.091691	63.091691	8.312719	29.427598	2.830000	0.117500	0.042915	-14.650226
41.794392	0.078823	0.494850	0.501089	103.810545	61.575002	0.364113	61.309318	61.309318	61.309318	8.371086	30.165754	2.830000	0.120830	0.045960	-21.723649
42.396421	0.082944	0.503104	0.509896	104.036846	56.863759	0.359149	59.489150	59.489150	59.489150	8.424460	30.796276	2.830000	0.124687	0.049768	-27.713306
43.007121	0.087245	0.511443	0.518831	104.260210	52.233092	0.354203	57.631643	57.631643	57.631643	8.472132	31.320405	2.830000	0.129071	0.054180	-32.670960
43.626619	0.091727	0.519864	0.527895	104.480386	47.915293	0.349277	55.737450	55.737450	55.737450	8.513408	31.741607	2.830000	0.133981	0.059063	-36.719024
44.255040	0.096391	0.528365	0.537085	104.697127	44.006763	0.344372	53.807422	53.807422	53.807422	8.547627	32.065100	2.830000	0.139417	0.064308	-39.998886
44.892513	0.101233	0.536943	0.546403	104.910203	40.524117	0.339489	51.842612	51.842612	51.842612	8.574174	32.297371	2.830000	0.145374	0.069835	-42.643997
45.539168	0.106253	0.545599	0.555849	105.119401	37.443875	0.334630	49.844267	49.844267	49.844267	8.592502	32.445712	2.830000	0.151851	0.075580	-44.769510
46.195138	0.111448	0.554333	0.565425	105.324531	34.725982	0.329795	47.813829	47.813829	47.813829	8.602145	32.517827	2.830000	0.158842	0.081495	-46.470507
46.860558	0.116814	0.563149	0.575137	105.525434	32.326236	0.324987	45.752914	45.752914	45.752914	8.602739	32.521504	2.830000	0.166344	0.087545	-47.823826
47.535562	0.122347	0.572051	0.584988	105.721980	30.202223	0.320207	43.663297	43.663297	43.663297	8.594035	32.464361	2.830000	0.174351	0.093702	-48.890993
48.220290	0.128045	0.581046	0.594988	105.914081	28.315749	0.315457	41.546888	41.546888	41.546888	8.575918	32.353679	2.830000	0.182860	0.099944	-49.721151
48.914880	0.133905	0.590144	0.605145	106.101689	26.633522	0.310737	39.405702	39.405702	39.405702	8.548415	32.196288	2.830000	0.191866	0.106257	-50.353596
49.619476	0.139923	0.599357	0.615473	106.284802	25.127016	0.306048	37.241826	37.241826	37.241826	8.511705	31.998520	2.830000	0.201365	0.112628	-50.819842
50.334221	0.146099	0.608701	0.625988	106.463467	23.771997	0.301392	35.057379	35.057379	35.057379	8.466126	31.766194	2.830000	0.211357	0.119048	-51.145244
51.059262	0.152433	0.618193	0.636709	106.637784	22.547959	0.296770	32.854472	32.854472	32.854472	8.412178	31.504640	2.830000	0.221839	0.125510	-51.350266
51.794747	0.158930	0.627855	0.647657	106.807903	21.437562	0.292180	30.635157	30.635157	30.635157	8.350514	31.218743	2.830000	0.232814	0.132011	-51.451455
52.540826	0.165593	0.637710	0.658859	106.974029	20.426135	0.287625	28.401387	28.401387	28.401387	8.281944	30.912996	2.830000	0.244285	0.138548	-51.462201
53.297652	0.172434	0.647787	0.670344	107.136420	19.501241	0.283102	26.154961	26.154961	26.154961	8.207415	30.591558	2.830000	0.256256	0.145119	-51.393324
54.065379	0.179466	0.658115	0.682146	107.295386	18.652311	0.278612	23.897478	23.897478	23.897478	8.128004	30.258322	2.830000	0.268737	0.151724	-51.253534
54.844166	0.186708	0.668725	0.694301	107.451283	17.870345	0.274153	21.630290	21.630290	21.630290	8.044900	29.916963	2.830000	0.281738	0.158363	-51.049797
55.634170	0.194183	0.679654	0.706850	107.604518	17.147659	0.269723	19.354455	19.354455	19.354455	7.959386	29.570994	2.830000	0.295271	0.165037	-50.787625
56.435554	0.201923	0.690937	0.719838	107.755535	16.477677	0.265320	17.070695	17.070695	17.070695	7.872824	29.223806	2.830000	0.309351	0.171748	-50.471313
57.248482	0.209963	0.702612	0.733314	107.904817	15.854761	0.260941	14.779352	14.779352	14.779352	7.786631	28.878708	2.830000	0.323995	0.178495	-50.104127
58.073119	0.218350	0.714720	0.747329	108.052880	15.274069	0.256584	12.480358	12.480358	12.480358	7.702267	28.538954	2.830000	0.339222	0.185281	-49.688467
58.909635	0.227136	0.727299	0.761942	108.200264	14.731437	0.252243	10.173192	10.173192	10.173192	7.621213	28.207761	2.830000	0.355052	0.192106	-49.225996
59.758201	0.236385	0.740391	0.777211	108.347530	14.223284	0.247916	7.856857	7.856857	7.856857	7.544961	27.888336	2.830000	0.371505	0.198970	-48.717753
60.618990	0.246168	0.754035	0.793201	108.495251	13.746525	0.243597	5.529847	5.529847	5.529847	7.475001	27.583877	2.830000	0.388601	0.205870	-48.164246
61.492178	0.256572	0.768270	0.809980	108.644006	13.298509	0.239281	3.190125	3.190125	3.190125	7.412808	27.297596	2.830000	0.406360	0.212806	-47.565528
