Freq (hertz)	Ra (norm)	Xa (norm)	Za (norm)	SPL (dB)	Ze (ohms)	Xd (mm) 	WPhase (deg)	UPhase (deg)	CPhase (deg)	Delay (msec)	Efficiency (%)	Ein (volts)	Pin (watts)	Iin (amps)	ZePhase (deg)

10.000000	0.001422	0.172872	0.172878	60.048972	10.572065	1.364706	122.555580	122.555580	122.555580	11.741154	0.206197	2.830000	0.486083	0.267687	50.085121
10.144045	0.001468	0.175484	0.175490	60.492664	10.728183	1.354723	121.949505	121.949505	121.949505	11.634521	0.220790	2.830000	0.474479	0.263791	50.536942
10.290166	0.001516	0.178139	0.178145	60.935690	10.890783	1.344660	121.340308	121.340308	121.340308	11.527948	0.236492	2.830000	0.462923	0.259853	50.986788
10.438391	0.001565	0.180838	0.180845	61.378056	11.060227	1.334521	120.728020	120.728020	120.728020	11.421487	0.253393	2.830000	0.451423	0.255872	51.434354
10.588751	0.001616	0.183582	0.183589	61.819770	11.236907	1.324307	120.112670	120.112670	120.112670	11.315184	0.271594	2.830000	0.439984	0.251849	51.879312
10.741277	0.001669	0.186372	0.186379	62.260840	11.421242	1.314020	119.494288	119.494288	119.494288	11.209091	0.291203	2.830000	0.428614	0.247784	52.321316
10.896000	0.001724	0.189209	0.189217	62.701273	11.613685	1.303664	118.872901	118.872901	118.872901	11.103258	0.312338	2.830000	0.417320	0.243678	52.759993
11.052951	0.001781	0.192094	0.192102	63.141079	11.814728	1.293242	118.248535	118.248535	118.248535	10.997733	0.335127	2.830000	0.406111	0.239532	53.194946
11.212164	0.001840	0.195028	0.195037	63.580268	12.024900	1.282754	117.621213	117.621213	117.621213	10.892566	0.359710	2.830000	0.394992	0.235345	53.625745
11.373670	0.001901	0.198012	0.198021	64.018850	12.244779	1.272205	116.990958	116.990958	116.990958	10.787807	0.386242	2.830000	0.383971	0.231119	54.051932
11.537502	0.001964	0.201047	0.201056	64.456836	12.474988	1.261597	116.357790	116.357790	116.357790	10.683505	0.414888	2.830000	0.373055	0.226854	54.473011
11.703695	0.002030	0.204134	0.204144	64.894237	12.716207	1.250932	115.721726	115.721726	115.721726	10.579710	0.445831	2.830000	0.362253	0.222551	54.888444
11.872281	0.002099	0.207275	0.207286	65.331066	12.969179	1.240214	115.082783	115.082783	115.082783	10.476469	0.479270	2.830000	0.351570	0.218210	55.297651
12.043295	0.002169	0.210470	0.210482	65.767336	13.234713	1.229445	114.440974	114.440974	114.440974	10.373832	0.515420	2.830000	0.341014	0.213832	55.700000
12.216773	0.002243	0.213722	0.213733	66.203059	13.513693	1.218628	113.796310	113.796310	113.796310	10.271847	0.554520	2.830000	0.330593	0.209417	56.094805
12.392750	0.002319	0.217030	0.217043	66.638251	13.807091	1.207765	113.148798	113.148798	113.148798	10.170562	0.596826	2.830000	0.320313	0.204967	56.481315
12.571262	0.002399	0.220397	0.220410	67.072926	14.115972	1.196861	112.498445	112.498445	112.498445	10.070022	0.642620	2.830000	0.310181	0.200482	56.858707
12.752345	0.002481	0.223824	0.223838	67.507100	14.441509	1.185917	111.845251	111.845251	111.845251	9.970276	0.692208	2.830000	0.300206	0.195963	57.226079
12.936037	0.002567	0.227312	0.227327	67.940790	14.784998	1.174936	111.189218	111.189218	111.189218	9.871369	0.745924	2.830000	0.290393	0.191410	57.582437
13.122374	0.002656	0.230863	0.230878	68.374011	15.147869	1.163922	110.530339	110.530339	110.530339	9.773347	0.804130	2.830000	0.280750	0.186825	57.926683
13.311396	0.002749	0.234478	0.234495	68.806782	15.531708	1.152876	109.868609	109.868609	109.868609	9.676255	0.867221	2.830000	0.271283	0.182208	58.257601
13.503140	0.002845	0.238160	0.238177	69.239121	15.938278	1.141803	109.204015	109.204015	109.204015	9.580137	0.935625	2.830000	0.262000	0.177560	58.573837
13.697647	0.002945	0.241908	0.241926	69.671048	16.369542	1.130704	108.536543	108.536543	108.536543	9.485036	1.009805	2.830000	0.252908	0.172882	58.873885
13.894955	0.003050	0.245726	0.245745	70.102582	16.827693	1.119583	107.866173	107.866173	107.866173	9.390997	1.090261	2.830000	0.244013	0.168175	59.156056
14.095105	0.003158	0.249616	0.249636	70.533744	17.315186	1.108443	107.192884	107.192884	107.192884	9.298061	1.177534	2.830000	0.235322	0.163440	59.418455
14.298139	0.003271	0.253578	0.253599	70.964555	17.834782	1.097285	106.516647	106.516647	106.516647	9.206270	1.272204	2.830000	0.226841	0.158679	59.658946
14.504097	0.003389	0.257614	0.257637	71.395037	18.389587	1.086114	105.837431	105.837431	105.837431	9.115665	1.374891	2.830000	0.218578	0.153891	59.875113
14.713021	0.003512	0.261728	0.261751	71.825214	18.983117	1.074931	105.155200	105.155200	105.155200	9.026286	1.486257	2.830000	0.210538	0.149080	60.064211
14.924955	0.003640	0.265920	0.265945	72.255109	19.619354	1.063740	104.469912	104.469912	104.469912	8.938175	1.607003	2.830000	0.202729	0.144245	60.223110
15.139942	0.003774	0.270194	0.270220	72.684746	20.302832	1.052543	103.781522	103.781522	103.781522	8.851369	1.737868	2.830000	0.195156	0.139389	60.348225
15.358026	0.003913	0.274550	0.274578	73.114151	21.038722	1.041342	103.089979	103.089979	103.089979	8.765907	1.879623	2.830000	0.187826	0.134514	60.435431
15.579251	0.004059	0.278993	0.279022	73.543350	21.832952	1.030141	102.395225	102.395225	102.395225	8.681828	2.033065	2.830000	0.180746	0.129621	60.479958
15.803663	0.004211	0.283523	0.283554	73.972370	22.692334	1.018942	101.697199	101.697199	101.697199	8.599170	2.199008	2.830000	0.173920	0.124712	60.476270
16.031307	0.004370	0.288144	0.288177	74.401239	23.624728	1.007746	100.995832	100.995832	100.995832	8.517969	2.378270	2.830000	0.167357	0.119790	60.417898
16.262231	0.004536	0.292858	0.292893	74.829986	24.639233	0.996558	100.291051	100.291051	100.291051	8.438262	2.571658	2.830000	0.161061	0.114857	60.297253
16.496481	0.004710	0.297669	0.297706	75.258640	25.746414	0.985378	99.582775	99.582775	99.582775	8.360087	2.779946	2.830000	0.155039	0.109918	60.105374
16.734105	0.004891	0.302578	0.302617	75.687232	26.958585	0.974210	98.870917	98.870917	98.870917	8.283480	3.003846	2.830000	0.149296	0.104976	59.831624
16.975152	0.005081	0.307589	0.307631	76.115794	28.290124	0.963055	98.155382	98.155382	98.155382	8.208476	3.243982	2.830000	0.143840	0.100035	59.463298
17.219671	0.005281	0.312705	0.312750	76.544357	29.757859	0.951916	97.436071	97.436071	97.436071	8.135112	3.500849	2.830000	0.138675	0.095101	58.985126
17.467712	0.005489	0.317930	0.317977	76.972957	31.381490	0.940795	96.712875	96.712875	96.712875	8.063424	3.774770	2.830000	0.133808	0.090181	58.378645
17.719326	0.005708	0.323266	0.323317	77.401626	33.184055	0.929693	95.985678	95.985678	95.985678	7.993449	4.065849	2.830000	0.129245	0.085282	57.621390
17.974565	0.005937	0.328719	0.328772	77.830402	35.192379	0.918614	95.254354	95.254354	95.254354	7.925223	4.373916	2.830000	0.124991	0.080415	56.685865
18.233480	0.006178	0.334290	0.334347	78.259320	37.437411	0.907558	94.518773	94.518773	94.518773	7.858783	4.698476	2.830000	0.121052	0.075593	55.538241
18.496125	0.006431	0.339985	0.340046	78.688419	39.954260	0.896527	93.778791	93.778791	93.778791	7.794166	5.038654	2.830000	0.117435	0.070831	54.136720
18.762553	0.006697	0.345808	0.345873	79.117738	42.781515	0.885524	93.034259	93.034259	93.034259	7.731411	5.393146	2.830000	0.114146	0.066150	52.429555
19.032818	0.006976	0.351763	0.351832	79.547318	45.959143	0.874549	92.285016	92.285016	92.285016	7.670557	5.760182	2.830000	0.111189	0.061576	50.352760
19.306977	0.007270	0.357855	0.357929	79.977199	49.523636	0.863605	91.530890	91.530890	91.530890	7.611644	6.137504	2.830000	0.108572	0.057144	47.827773
19.585085	0.007579	0.364089	0.364167	80.407425	53.498214	0.852693	90.771700	90.771700	90.771700	7.554713	6.522359	2.830000	0.106300	0.052899	44.759749
19.867199	0.007905	0.370469	0.370554	80.838040	57.874708	0.841814	90.007254	90.007254	90.007254	7.499807	6.911531	2.830000	0.104379	0.048899	41.038020
20.153377	0.008248	0.377002	0.377093	81.269090	62.583094	0.830969	89.237346	89.237346	89.237346	7.446970	7.301389	2.830000	0.102816	0.045220	36.541782
20.443677	0.008611	0.383694	0.383791	81.700623	67.446828	0.820160	88.461760	88.461760	88.461760	7.396249	7.687978	2.830000	0.101616	0.041959	31.156105
20.738158	0.008993	0.390550	0.390654	82.132686	72.132574	0.809388	87.680264	87.680264	87.680264	7.347692	8.067135	2.830000	0.100787	0.039233	24.804668
21.036882	0.009397	0.397577	0.397688	82.565331	76.127194	0.798653	86.892613	86.892613	86.892613	7.301349	8.434635	2.830000	0.100334	0.037175	17.501698
21.339908	0.009824	0.404782	0.404901	82.998610	78.803085	0.787957	86.098549	86.098549	86.098549	7.257274	8.786352	2.830000	0.100264	0.035912	9.410001
21.647300	0.010277	0.412172	0.412300	83.432576	79.614835	0.777300	85.297796	85.297796	85.297796	7.215525	9.118426	2.830000	0.100584	0.035546	0.866560
21.959119	0.010755	0.419755	0.419893	83.867286	78.353714	0.766683	84.490061	84.490061	84.490061	7.176160	9.427424	2.830000	0.101300	0.036118	-7.668752
22.275430	0.011263	0.427539	0.427688	84.302796	75.265215	0.756106	83.675034	83.675034	83.675034	7.139245	9.710482	2.830000	0.102420	0.037600	-15.737040
22.596297	0.011802	0.435534	0.435694	84.739166	70.918204	0.745571	82.852386	82.852386	82.852386	7.104847	9.965414	2.830000	0.103951	0.039905	-23.003605
22.921786	0.012373	0.443747	0.443920	85.176459	65.946735	0.735076	82.021768	82.021768	82.021768	7.073038	10.190778	2.830000	0.105900	0.042913	-29.308004
23.251963	0.012981	0.452190	0.452377	85.614738	60.858374	0.724623	81.182807	81.182807	81.182807	7.043898	10.385903	2.830000	0.108275	0.046501	-34.637630
23.586897	0.013628	0.460873	0.461075	86.054070	55.975755	0.714211	80.335110	80.335110	80.335110	7.017511	10.550872	2.830000	0.111083	0.050558	-39.069563
23.926655	0.014317	0.469807	0.470025	86.494522	51.464252	0.703841	79.478256	79.478256	79.478256	6.993966	10.686460	2.830000	0.114333	0.054990	-42.718860
24.271307	0.015052	0.479005	0.479241	86.936166	47.384319	0.693511	78.611799	78.611799	78.611799	6.973361	10.794056	2.830000	0.118033	0.059724	-45.706096
24.620924	0.015836	0.488479	0.488736	87.379076	43.736622	0.683222	77.735263	77.735263	77.735263	6.955802	10.875549	2.830000	0.122192	0.064706	-48.141546
24.975577	0.016674	0.498244	0.498522	87.823328	40.492307	0.672973	76.848143	76.848143	76.848143	6.941403	10.933218	2.830000	0.126819	0.069890	-50.119598
25.335338	0.017571	0.508313	0.508617	88.269002	37.610725	0.662763	75.949896	75.949896	75.949896	6.930286	10.969611	2.830000	0.131923	0.075244	-51.718341
25.700282	0.018532	0.518705	0.519036	88.716179	35.048863	0.652591	75.039948	75.039948	75.039948	6.922587	10.987442	2.830000	0.137515	0.080744	-53.001287
26.070482	0.019563	0.529435	0.529797	89.164944	32.765890	0.642457	74.117683	74.117683	74.117683	6.918451	10.989490	2.830000	0.143603	0.086370	-54.019712
26.446016	0.020670	0.540523	0.540918	89.615387	30.725043	0.632358	73.182441	73.182441	73.182441	6.918037	10.978520	2.830000	0.150199	0.092107	-54.814935
26.826958	0.021861	0.551989	0.552422	90.067599	28.894134	0.622295	72.233519	72.233519	72.233519	6.921516	10.957221	2.830000	0.157315	0.097944	-55.420298
27.213388	0.023144	0.563855	0.564329	90.521674	27.245409	0.612264	71.270162	71.270162	71.270162	6.929077	10.928161	2.830000	0.164960	0.103871	-55.862788
27.605384	0.024528	0.576144	0.576665	90.977712	25.755127	0.602263	70.291561	70.291561	70.291561	6.940925	10.893751	2.830000	0.173148	0.109881	-56.164338
28.003026	0.026024	0.588882	0.589456	91.435815	24.403046	0.592291	69.296846	69.296846	69.296846	6.957285	10.856234	2.830000	0.181892	0.115969	-56.342845
28.406397	0.027643	0.602097	0.602731	91.896088	23.171923	0.582346	68.285085	68.285085	68.285085	6.978402	10.817675	2.830000	0.191203	0.122131	-56.412974
28.815578	0.029398	0.615819	0.616521	92.358642	22.047058	0.572423	67.255271	67.255271	67.255271	7.004544	10.779964	2.830000	0.201097	0.128362	-56.386779
29.230652	0.031305	0.630082	0.630860	92.823589	21.015889	0.562521	66.206323	66.206323	66.206323	7.036005	10.744829	2.830000	0.211587	0.134660	-56.274199
29.651706	0.033379	0.644923	0.645786	93.291046	20.067655	0.552635	65.137072	65.137072	65.137072	7.073107	10.713845	2.830000	0.222689	0.141023	-56.083438
30.078825	0.035641	0.660379	0.661340	93.761135	19.193110	0.542763	64.046257	64.046257	64.046257	7.116203	10.688455	2.830000	0.234418	0.147449	-55.821267
30.512097	0.038112	0.676496	0.677568	94.233979	18.384282	0.532898	62.932514	62.932514	62.932514	7.165682	10.669989	2.830000	0.246791	0.153936	-55.493263
30.951609	0.040818	0.693320	0.694521	94.709707	17.634274	0.523038	61.794365	61.794365	61.794365	7.221969	10.659684	2.830000	0.259824	0.160483	-55.104000
31.397452	0.043787	0.710905	0.712252	95.188449	16.937103	0.513176	60.630209	60.630209	60.630209	7.285533	10.658706	2.830000	0.273535	0.167089	-54.657194
31.849718	0.047053	0.729308	0.730824	95.670338	16.287560	0.503307	59.438307	59.438307	59.438307	7.356887	10.668171	2.830000	0.287942	0.173752	-54.155829
32.308498	0.050655	0.748593	0.750305	96.155511	15.681096	0.493425	58.216768	58.216768	58.216768	7.436597	10.689165	2.830000	0.303064	0.180472	-53.602243
32.773887	0.054636	0.768832	0.770771	96.644105	15.113730	0.483522	56.963534	56.963534	56.963534	7.525286	10.722770	2.830000	0.318920	0.187247	-52.998210
33.245979	0.059050	0.790102	0.792306	97.136256	14.581969	0.473590	55.676362	55.676362	55.676362	7.623637	10.770078	2.830000	0.335530	0.194075	-52.344991
33.724872	0.063958	0.812492	0.815006	97.632103	14.082744	0.463622	54.352806	54.352806	54.352806	7.732402	10.832217	2.830000	0.352911	0.200955	-51.643387
34.210663	0.069432	0.836099	0.838977	98.131780	13.613353	0.453607	52.990191	52.990191	52.990191	7.852407	10.910370	2.830000	0.371084	0.207884	-50.893766
34.703452	0.075556	0.861031	0.864340	98.635417	13.171417	0.443536	51.585593	51.585593	51.585593	7.984557	11.005797	2.830000	0.390066	0.214859	-50.096097
35.203338	0.082431	0.887409	0.891230	99.143137	12.754842	0.433397	50.135813	50.135813	50.135813	8.129845	11.119858	2.830000	0.409875	0.221877	-49.249957
35.710426	0.090177	0.915370	0.919801	99.655054	12.361791	0.423177	48.637343	48.637343	48.637343	8.289357	11.254038	2.830000	0.430526	0.228931	-48.354554
36.224818	0.098939	0.945065	0.950230	100.171268	11.990653	0.412864	47.086339	47.086339	47.086339	8.464274	11.409970	2.830000	0.452030	0.236017	-47.408725
36.746619	0.108889	0.976663	0.982715	100.691858	11.640025	0.402441	45.478587	45.478587	45.478587	8.655883	11.589464	2.830000	0.474396	0.243127	-46.410946
37.275937	0.120239	1.010356	1.017486	101.216879	11.308701	0.391893	43.809461	43.809461	43.809461	8.865570	11.794537	2.830000	0.497627	0.250250	-45.359326
37.812880	0.133242	1.046356	1.054806	101.746354	10.995651	0.381202	42.073890	42.073890	42.073890	9.094823	12.027446	2.830000	0.521718	0.257374	-44.251609
38.357556	0.148215	1.084901	1.094978	102.280262	10.700022	0.370350	40.266314	40.266314	40.266314	9.345225	12.290726	2.830000	0.546654	0.264485	-43.085177
38.910079	0.165543	1.126252	1.138353	102.818527	10.421129	0.359315	38.380650	38.380650	38.380650	9.618436	12.587228	2.830000	0.572407	0.271564	-41.857046
39.470560	0.185709	1.170699	1.185337	103.361007	10.158454	0.348078	36.410247	36.410247	36.410247	9.916169	12.920168	2.830000	0.598931	0.278586	-40.563877
40.039115	0.209312	1.218556	1.236402	103.907472	9.911655	0.336615	34.347859	34.347859	34.347859	10.240148	13.293175	2.830000	0.626159	0.285522	-39.202000
40.615860	0.237111	1.270153	1.292095	104.457586	9.680571	0.324906	32.185619	32.185619	32.185619	10.592048	13.710347	2.830000	0.653997	0.292338	-37.767442
41.200912	0.270062	1.325829	1.353054	105.010879	9.465233	0.312930	29.915032	29.915032	29.915032	10.973407	14.176313	2.830000	0.682312	0.298989	-36.255989
41.794392	0.309387	1.385903	1.420017	105.566722	9.265885	0.300669	27.526989	27.526989	27.526989	11.385500	14.696297	2.830000	0.710929	0.305421	-34.663278
42.396421	0.356647	1.450635	1.493833	106.124287	9.083007	0.288107	25.011813	25.011813	25.011813	11.829170	15.276185	2.830000	0.739620	0.311571	-32.984937
43.007121	0.413848	1.520144	1.575471	106.682510	8.917343	0.275240	22.359360	22.359360	22.359360	12.304608	15.922598	2.830000	0.768089	0.317359	-31.216786
43.626619	0.483567	1.594285	1.666007	107.240048	8.769939	0.262073	19.559173	19.559173	19.559173	12.811061	16.642951	2.830000	0.795962	0.322693	-29.355129
44.255040	0.569102	1.672419	1.766596	107.795227	8.642187	0.248630	16.600735	16.600735	16.600735	13.346473	17.445512	2.830000	0.822779	0.327463	-27.397148
44.892513	0.674619	1.753055	1.878381	108.346002	8.535874	0.234962	13.473818	13.473818	13.473818	13.907056	18.339427	2.830000	0.847977	0.331542	-25.341446
45.539168	0.805248	1.833256	2.002311	108.889905	8.453242	0.221157	10.168972	10.168972	10.168972	14.486808	19.334718	2.830000	0.870895	0.334783	-23.188748
46.195138	0.966972	1.907716	2.138788	109.424017	8.397048	0.207354	6.678166	6.678166	6.678166	15.077014	20.442204	2.830000	0.890767	0.337023	-20.942804
46.860558	1.166026	1.967450	2.287024	109.944954	8.370628	0.193763	2.995579	2.995579	2.995579	15.665802	21.673331	2.830000	0.906750	0.338087	-18.611501
47.535562	1.407236	1.998175	2.443975	110.448880	8.377959	0.180681	-0.881453	-0.881453	-0.881453	16.237860	23.039849	2.830000	0.917953	0.337791	-16.208181
48.220290	1.690523	1.979058	2.602794	110.931575	8.423706	0.168504	-4.951398	-4.951398	-4.951398	16.774457	24.553264	2.830000	0.923498	0.335957	-13.753124
48.914880	2.005014	1.883683	2.751062	111.388545	8.513235	0.157734	-9.207482	-9.207482	-9.207482	17.253939	26.223999	2.830000	0.922602	0.332424	-11.275113
49.619476	2.322145	1.686463	2.869933	111.815206	8.652591	0.148942	-13.636772	-13.636772	-13.636772	17.652834	28.060129	2.830000	0.914679	0.327070	-8.812921
50.334221	2.593610	1.376790	2.936387	112.207127	8.848385	0.142685	-18.219583	-18.219583	-18.219583	17.947621	30.065609	2.830000	0.899456	0.319832	-6.416536
51.059262	2.763207	0.975632	2.930387	112.560321	9.107551	0.139378	-22.929385	-22.929385	-22.929385	18.117069	32.237873	2.830000	0.877066	0.310731	-4.147853
51.794747	2.793205	0.538446	2.844630	112.871547	9.436921	0.139142	-27.733387	-27.733387	-27.733387	18.144819	34.564784	2.830000	0.848118	0.299886	-2.080551
52.540826	2.686196	0.133420	2.689507	113.138600	9.842489	0.141735	-32.593846	-32.593846	-32.593846	18.021744	37.021045	2.830000	0.813696	0.287529	-0.298888
53.297652	2.481026	-0.189804	2.488276	113.360513	10.328257	0.146606	-37.470040	-37.470040	-37.470040	17.747526	39.564427	2.830000	0.775292	0.274006	1.104925
54.065379	2.228420	-0.414626	2.266665	113.537658	10.894503	0.153037	-42.320653	-42.320653	-42.320653	17.331013	42.132544	2.830000	0.734669	0.259764	2.035149
54.844166	1.969545	-0.550238	2.044962	113.671712	11.535355	0.160299	-47.106261	-47.106261	-47.106261	16.789235	44.641341	2.830000	0.693683	0.245333	2.399291
55.634170	1.728879	-0.616928	1.835654	113.765495	12.235776	0.167762	-51.791536	-51.791536	-51.791536	16.145297	46.986761	2.830000	0.654101	0.231289	2.117919
56.435554	1.516994	-0.635470	1.644717	113.822722	12.968508	0.174935	-56.346900	-56.346900	-56.346900	15.425630	49.051000	2.830000	0.617443	0.218221	1.137984
57.248482	1.335946	-0.622626	1.473911	113.847697	13.692383	0.181476	-60.749451	-60.749451	-60.749451	14.657215	50.713932	2.830000	0.584889	0.206684	-0.551023
58.073119	1.183612	-0.590433	1.322705	113.845015	14.354162	0.187173	-64.983191	-64.983191	-64.983191	13.865251	51.868666	2.830000	0.557235	0.197155	-2.901293
58.909635	1.056305	-0.546991	1.189529	113.819291	14.895891	0.191915	-69.038647	-69.038647	-69.038647	13.071559	52.438207	2.830000	0.534908	0.189985	-5.797837
59.758201	0.950098	-0.497534	1.072486	113.774951	15.267422	0.195671	-72.912090	-72.912090	-72.912090	12.293756	52.388778	2.830000	0.518023	0.185362	-9.064476
60.618990	0.861398	-0.445352	0.969714	113.716084	15.439687	0.198462	-76.604533	-76.604533	-76.604533	11.545102	51.735670	2.830000	0.506449	0.183294	-12.488354
61.492178	0.787137	-0.392453	0.879547	113.646355	15.412034	0.200342	-80.120673	-80.120673	-80.120673	10.834811	50.539742	2.830000	0.499878	0.183623	-15.856940
